"RawData - File_210319_171149.spc"
"Wavelength nm."	"Abs."
190.00	3.780
191.00	3.392
192.00	3.744
193.00	3.565
194.00	3.585
195.00	3.591
196.00	3.685
197.00	3.535
198.00	3.562
199.00	3.595
200.00	3.786
201.00	3.808
202.00	3.759
203.00	3.631
204.00	3.649
205.00	3.748
206.00	3.760
207.00	3.711
208.00	3.870
209.00	3.797
210.00	3.514
211.00	3.778
212.00	3.756
213.00	3.787
214.00	3.844
215.00	3.831
216.00	3.930
217.00	3.876
218.00	3.816
219.00	3.811
220.00	3.836
221.00	3.874
222.00	3.822
223.00	3.845
224.00	3.859
225.00	3.872
226.00	3.834
227.00	3.923
228.00	3.824
229.00	3.845
230.00	3.841
231.00	3.906
232.00	3.990
233.00	3.875
234.00	3.840
235.00	3.887
236.00	3.852
237.00	3.952
238.00	3.908
239.00	3.857
240.00	3.933
241.00	3.781
242.00	3.839
243.00	3.701
244.00	3.840
245.00	3.790
246.00	3.928
247.00	3.807
248.00	3.866
249.00	3.934
250.00	3.903
251.00	3.877
252.00	3.848
253.00	3.831
254.00	3.855
255.00	3.805
256.00	3.809
257.00	3.885
258.00	3.698
259.00	3.691
260.00	3.787
261.00	3.855
262.00	3.897
263.00	3.600
264.00	3.776
265.00	3.777
266.00	3.509
267.00	3.715
268.00	3.635
269.00	3.609
270.00	3.659
271.00	3.963
272.00	3.863
273.00	3.577
274.00	3.878
275.00	3.909
276.00	3.840
277.00	3.854
278.00	3.723
279.00	3.687
280.00	3.719
281.00	3.731
282.00	3.749
283.00	3.597
284.00	3.751
285.00	3.795
286.00	3.776
287.00	3.470
288.00	3.819
289.00	3.691
290.00	3.648
291.00	3.512
292.00	3.932
293.00	3.549
294.00	3.658
295.00	3.737
296.00	3.708
297.00	3.529
298.00	3.692
299.00	3.315
300.00	3.400
301.00	3.353
302.00	3.271
303.00	3.001
304.00	2.943
305.00	2.657
306.00	2.601
307.00	2.563
308.00	2.361
309.00	2.236
310.00	2.163
311.00	2.470
312.00	2.224
313.00	2.022
314.00	1.820
315.00	1.613
316.00	1.574
317.00	1.454
318.00	1.359
319.00	1.279
320.00	1.196
321.00	1.118
322.00	1.043
323.00	0.980
324.00	0.924
325.00	0.867
326.00	0.811
327.00	0.765
328.00	0.717
329.00	0.675
330.00	0.636
331.00	0.607
332.00	0.575
333.00	0.547
334.00	0.521
335.00	0.497
336.00	0.476
337.00	0.456
338.00	0.439
339.00	0.423
340.00	0.409
341.00	0.398
342.00	0.391
343.00	0.385
344.00	0.380
345.00	0.376
346.00	0.373
347.00	0.371
348.00	0.370
349.00	0.365
350.00	0.362
351.00	0.358
352.00	0.352
353.00	0.345
354.00	0.339
355.00	0.333
356.00	0.326
357.00	0.319
358.00	0.314
359.00	0.307
360.00	0.303
361.00	0.298
362.00	0.294
363.00	0.292
364.00	0.288
365.00	0.287
366.00	0.285
367.00	0.284
368.00	0.281
369.00	0.280
370.00	0.278
371.00	0.276
372.00	0.274
373.00	0.272
374.00	0.271
375.00	0.269
376.00	0.268
377.00	0.266
378.00	0.265
379.00	0.264
380.00	0.262
381.00	0.261
382.00	0.259
383.00	0.257
384.00	0.254
385.00	0.252
386.00	0.248
387.00	0.244
388.00	0.239
389.00	0.234
390.00	0.228
391.00	0.222
392.00	0.216
393.00	0.210
394.00	0.203
395.00	0.197
396.00	0.192
397.00	0.186
398.00	0.180
399.00	0.175
400.00	0.171
401.00	0.166
402.00	0.161
403.00	0.156
404.00	0.151
405.00	0.146
406.00	0.141
407.00	0.135
408.00	0.129
409.00	0.124
410.00	0.118
411.00	0.112
412.00	0.107
413.00	0.102
414.00	0.097
415.00	0.092
416.00	0.089
417.00	0.085
418.00	0.082
419.00	0.079
420.00	0.077
421.00	0.075
422.00	0.074
423.00	0.072
424.00	0.071
425.00	0.070
426.00	0.070
427.00	0.069
428.00	0.068
429.00	0.068
430.00	0.067
431.00	0.067
432.00	0.067
433.00	0.067
434.00	0.066
435.00	0.066
436.00	0.066
437.00	0.066
438.00	0.066
439.00	0.066
440.00	0.066
441.00	0.066
442.00	0.066
443.00	0.066
444.00	0.066
445.00	0.066
446.00	0.067
447.00	0.067
448.00	0.068
449.00	0.068
450.00	0.069
451.00	0.070
452.00	0.071
453.00	0.072
454.00	0.073
455.00	0.075
456.00	0.076
457.00	0.077
458.00	0.079
459.00	0.080
460.00	0.082
461.00	0.084
462.00	0.085
463.00	0.087
464.00	0.089
465.00	0.091
466.00	0.093
467.00	0.095
468.00	0.097
469.00	0.099
470.00	0.101
471.00	0.104
472.00	0.106
473.00	0.109
474.00	0.112
475.00	0.115
476.00	0.119
477.00	0.123
478.00	0.127
479.00	0.132
480.00	0.137
481.00	0.143
482.00	0.149
483.00	0.155
484.00	0.162
485.00	0.170
486.00	0.178
487.00	0.186
488.00	0.194
489.00	0.203
490.00	0.212
491.00	0.220
492.00	0.229
493.00	0.237
494.00	0.245
495.00	0.253
496.00	0.261
497.00	0.268
498.00	0.274
499.00	0.280
500.00	0.286
501.00	0.291
502.00	0.296
503.00	0.300
504.00	0.305
505.00	0.309
506.00	0.314
507.00	0.319
508.00	0.325
509.00	0.332
510.00	0.340
511.00	0.349
512.00	0.359
513.00	0.371
514.00	0.383
515.00	0.399
516.00	0.415
517.00	0.435
518.00	0.455
519.00	0.477
520.00	0.500
521.00	0.525
522.00	0.551
523.00	0.577
524.00	0.604
525.00	0.632
526.00	0.660
527.00	0.686
528.00	0.711
529.00	0.733
530.00	0.754
531.00	0.772
532.00	0.787
533.00	0.799
534.00	0.806
535.00	0.809
536.00	0.807
537.00	0.800
538.00	0.789
539.00	0.774
540.00	0.756
541.00	0.732
542.00	0.705
543.00	0.675
544.00	0.642
545.00	0.607
546.00	0.571
547.00	0.535
548.00	0.498
549.00	0.460
550.00	0.425
551.00	0.390
552.00	0.357
553.00	0.325
554.00	0.297
555.00	0.268
556.00	0.243
557.00	0.219
558.00	0.197
559.00	0.178
560.00	0.160
561.00	0.144
562.00	0.130
563.00	0.118
564.00	0.107
565.00	0.096
566.00	0.088
567.00	0.081
568.00	0.074
569.00	0.068
570.00	0.064
571.00	0.059
572.00	0.056
573.00	0.053
574.00	0.050
575.00	0.048
576.00	0.046
577.00	0.045
578.00	0.043
579.00	0.042
580.00	0.041
581.00	0.040
582.00	0.039
583.00	0.039
584.00	0.038
585.00	0.038
586.00	0.037
587.00	0.037
588.00	0.037
589.00	0.036
590.00	0.036
591.00	0.036
592.00	0.036
593.00	0.036
594.00	0.036
595.00	0.036
596.00	0.036
597.00	0.035
598.00	0.035
599.00	0.035
600.00	0.035
601.00	0.035
602.00	0.035
603.00	0.035
604.00	0.035
605.00	0.035
606.00	0.035
607.00	0.035
608.00	0.035
609.00	0.035
610.00	0.035
611.00	0.035
612.00	0.035
613.00	0.035
614.00	0.035
615.00	0.035
616.00	0.035
617.00	0.035
618.00	0.035
619.00	0.035
620.00	0.035
621.00	0.035
622.00	0.035
623.00	0.035
624.00	0.035
625.00	0.035
626.00	0.035
627.00	0.035
628.00	0.035
629.00	0.035
630.00	0.035
631.00	0.035
632.00	0.035
633.00	0.035
634.00	0.035
635.00	0.035
636.00	0.035
637.00	0.035
638.00	0.035
639.00	0.035
640.00	0.035
641.00	0.035
642.00	0.035
643.00	0.035
644.00	0.036
645.00	0.036
646.00	0.036
647.00	0.036
648.00	0.036
649.00	0.036
650.00	0.036
651.00	0.036
652.00	0.036
653.00	0.036
654.00	0.036
655.00	0.036
656.00	0.036
657.00	0.036
658.00	0.036
659.00	0.036
660.00	0.036
661.00	0.036
662.00	0.036
663.00	0.036
664.00	0.036
665.00	0.036
666.00	0.036
667.00	0.036
668.00	0.036
669.00	0.036
670.00	0.036
671.00	0.036
672.00	0.036
673.00	0.036
674.00	0.036
675.00	0.036
676.00	0.036
677.00	0.036
678.00	0.036
679.00	0.036
680.00	0.036
681.00	0.036
682.00	0.036
683.00	0.036
684.00	0.036
685.00	0.036
686.00	0.036
687.00	0.036
688.00	0.036
689.00	0.036
690.00	0.036
691.00	0.036
692.00	0.037
693.00	0.036
694.00	0.037
695.00	0.037
696.00	0.037
697.00	0.037
698.00	0.037
699.00	0.037
700.00	0.037
701.00	0.037
702.00	0.037
703.00	0.037
704.00	0.037
705.00	0.037
706.00	0.037
707.00	0.037
708.00	0.037
709.00	0.037
710.00	0.037
711.00	0.037
712.00	0.037
713.00	0.037
714.00	0.037
715.00	0.037
716.00	0.038
717.00	0.038
718.00	0.037
719.00	0.038
720.00	0.038
721.00	0.038
722.00	0.038
723.00	0.038
724.00	0.038
725.00	0.038
726.00	0.038
727.00	0.038
728.00	0.038
729.00	0.038
730.00	0.038
731.00	0.038
732.00	0.038
733.00	0.038
734.00	0.038
735.00	0.038
736.00	0.038
737.00	0.038
738.00	0.038
739.00	0.038
740.00	0.038
741.00	0.038
742.00	0.039
743.00	0.039
744.00	0.039
745.00	0.039
746.00	0.039
747.00	0.039
748.00	0.039
749.00	0.039
750.00	0.039
751.00	0.039
752.00	0.039
753.00	0.039
754.00	0.039
755.00	0.039
756.00	0.039
757.00	0.039
758.00	0.039
759.00	0.039
760.00	0.040
761.00	0.040
762.00	0.039
763.00	0.040
764.00	0.040
765.00	0.040
766.00	0.040
767.00	0.040
768.00	0.040
769.00	0.040
770.00	0.040
771.00	0.040
772.00	0.040
773.00	0.040
774.00	0.040
775.00	0.040
776.00	0.040
777.00	0.040
778.00	0.040
779.00	0.040
780.00	0.040
781.00	0.040
782.00	0.040
783.00	0.040
784.00	0.041
785.00	0.041
786.00	0.041
787.00	0.041
788.00	0.041
789.00	0.041
790.00	0.041
791.00	0.041
792.00	0.041
793.00	0.041
794.00	0.041
795.00	0.041
796.00	0.041
797.00	0.041
798.00	0.041
799.00	0.041
800.00	0.041
801.00	0.041
802.00	0.041
803.00	0.041
804.00	0.041
805.00	0.041
806.00	0.041
807.00	0.041
808.00	0.042
809.00	0.042
810.00	0.042
811.00	0.042
812.00	0.042
813.00	0.042
814.00	0.042
815.00	0.042
816.00	0.042
817.00	0.042
818.00	0.042
819.00	0.042
820.00	0.042
821.00	0.042
822.00	0.042
823.00	0.042
824.00	0.042
825.00	0.042
826.00	0.042
827.00	0.042
828.00	0.042
829.00	0.042
830.00	0.042
831.00	0.042
832.00	0.042
833.00	0.042
834.00	0.042
835.00	0.042
836.00	0.042
837.00	0.042
838.00	0.043
839.00	0.043
840.00	0.043
841.00	0.043
842.00	0.043
843.00	0.043
844.00	0.043
845.00	0.043
846.00	0.043
847.00	0.043
848.00	0.043
849.00	0.043
850.00	0.043
851.00	0.043
852.00	0.043
853.00	0.043
854.00	0.043
855.00	0.043
856.00	0.043
857.00	0.043
858.00	0.043
859.00	0.043
860.00	0.043
861.00	0.043
862.00	0.043
863.00	0.043
864.00	0.043
865.00	0.043
866.00	0.043
867.00	0.043
868.00	0.043
869.00	0.043
870.00	0.043
871.00	0.043
872.00	0.043
873.00	0.043
874.00	0.043
875.00	0.043
876.00	0.044
877.00	0.043
878.00	0.044
879.00	0.044
880.00	0.044
881.00	0.044
882.00	0.044
883.00	0.044
884.00	0.044
885.00	0.044
886.00	0.044
887.00	0.044
888.00	0.044
889.00	0.044
890.00	0.044
891.00	0.044
892.00	0.044
893.00	0.044
894.00	0.044
895.00	0.044
896.00	0.044
897.00	0.044
898.00	0.044
899.00	0.044
900.00	0.044
901.00	0.044
902.00	0.044
903.00	0.044
904.00	0.044
905.00	0.044
906.00	0.044
907.00	0.044
908.00	0.044
909.00	0.044
910.00	0.044
911.00	0.044
912.00	0.044
913.00	0.044
914.00	0.044
915.00	0.044
916.00	0.044
917.00	0.045
918.00	0.045
919.00	0.045
920.00	0.045
921.00	0.044
922.00	0.045
923.00	0.045
924.00	0.045
925.00	0.045
926.00	0.045
927.00	0.045
928.00	0.045
929.00	0.045
930.00	0.045
931.00	0.045
932.00	0.045
933.00	0.045
934.00	0.045
935.00	0.045
936.00	0.045
937.00	0.045
938.00	0.045
939.00	0.045
940.00	0.045
941.00	0.045
942.00	0.045
943.00	0.045
944.00	0.045
945.00	0.045
946.00	0.045
947.00	0.045
948.00	0.045
949.00	0.045
950.00	0.045
951.00	0.045
952.00	0.045
953.00	0.045
954.00	0.045
955.00	0.045
956.00	0.045
957.00	0.045
958.00	0.045
959.00	0.045
960.00	0.045
961.00	0.045
962.00	0.045
963.00	0.045
964.00	0.045
965.00	0.045
966.00	0.045
967.00	0.045
968.00	0.045
969.00	0.045
970.00	0.045
971.00	0.045
972.00	0.045
973.00	0.045
974.00	0.045
975.00	0.045
976.00	0.045
977.00	0.045
978.00	0.045
979.00	0.045
980.00	0.045
981.00	0.045
982.00	0.045
983.00	0.045
984.00	0.045
985.00	0.045
986.00	0.045
987.00	0.045
988.00	0.045
989.00	0.045
990.00	0.045
991.00	0.045
992.00	0.045
993.00	0.045
994.00	0.045
995.00	0.045
996.00	0.045
997.00	0.045
998.00	0.045
999.00	0.045
1000.00	0.045
1001.00	0.045
1002.00	0.045
1003.00	0.045
1004.00	0.045
1005.00	0.045
1006.00	0.045
1007.00	0.045
1008.00	0.045
1009.00	0.045
1010.00	0.045
1011.00	0.045
1012.00	0.045
1013.00	0.045
1014.00	0.045
1015.00	0.045
1016.00	0.045
1017.00	0.045
1018.00	0.045
1019.00	0.045
1020.00	0.045
1021.00	0.045
1022.00	0.045
1023.00	0.045
1024.00	0.045
1025.00	0.045
1026.00	0.045
1027.00	0.045
1028.00	0.045
1029.00	0.045
1030.00	0.045
1031.00	0.045
1032.00	0.045
1033.00	0.045
1034.00	0.045
1035.00	0.045
1036.00	0.045
1037.00	0.045
1038.00	0.045
1039.00	0.045
1040.00	0.045
1041.00	0.045
1042.00	0.045
1043.00	0.045
1044.00	0.045
1045.00	0.045
1046.00	0.045
1047.00	0.045
1048.00	0.045
1049.00	0.045
1050.00	0.045
1051.00	0.045
1052.00	0.045
1053.00	0.045
1054.00	0.045
1055.00	0.045
1056.00	0.045
1057.00	0.045
1058.00	0.045
1059.00	0.045
1060.00	0.045
1061.00	0.045
1062.00	0.045
1063.00	0.045
1064.00	0.045
1065.00	0.045
1066.00	0.045
1067.00	0.045
1068.00	0.045
1069.00	0.045
1070.00	0.045
1071.00	0.045
1072.00	0.045
1073.00	0.045
1074.00	0.045
1075.00	0.045
1076.00	0.045
1077.00	0.045
1078.00	0.045
1079.00	0.045
1080.00	0.045
1081.00	0.045
1082.00	0.045
1083.00	0.045
1084.00	0.045
1085.00	0.045
1086.00	0.045
1087.00	0.045
1088.00	0.045
1089.00	0.045
1090.00	0.045
1091.00	0.045
1092.00	0.045
1093.00	0.045
1094.00	0.045
1095.00	0.045
1096.00	0.045
1097.00	0.045
1098.00	0.045
1099.00	0.045
1100.00	0.045
